time,position,velocity
0.0,10.0,0.0
0.01,10.00005,0.01
0.02,10.0002,0.020000000000000004
0.03,10.00045,0.030000000000000006
0.04,10.0008,0.040000000000000015
0.05,10.00125,0.05000000000000003
0.06,10.0018,0.06000000000000003
0.07,10.00245,0.07000000000000005
0.08,10.0032,0.08000000000000006
0.09,10.00405,0.09000000000000008
0.1,10.005,0.09999999999999998
0.11,10.00605,0.10999999999999997
0.12,10.007200000000001,0.11999999999999997
0.13,10.00845,0.12999999999999998
0.14,10.0098,0.13999999999999999
0.15,10.01125,0.14999999999999997
0.16,10.0128,0.15999999999999998
0.17,10.01445,0.16999999999999998
0.18,10.016200000000001,0.17999999999999997
0.19,10.01805,0.18999999999999997
0.2,10.020000000000001,0.19999999999999998
0.21,10.02205,0.20999999999999996
0.22,10.0242,0.21999999999999997
0.23,10.02645,0.22999999999999998
0.24,10.0288,0.23999999999999994
0.25,10.03125,0.25
0.26,10.033800000000001,0.26
0.27,10.03645,0.27
0.28,10.039200000000001,0.28
0.29,10.042050000000001,0.29
0.3,10.045,0.3
0.31,10.04805,0.31
0.32,10.051200000000001,0.32
0.33,10.054450000000001,0.33
0.34,10.0578,0.34
0.35000000000000003,10.061250000000001,0.35000000000000003
0.36,10.0648,0.36
0.37,10.06845,0.37
0.38,10.0722,0.38
0.39,10.07605,0.39
0.4,10.08,0.4
0.41000000000000003,10.084050000000001,0.41000000000000003
0.42,10.0882,0.42
0.43,10.092450000000001,0.43
0.44,10.0968,0.44
0.45,10.10125,0.45000000000000007
0.46,10.1058,0.4600000000000001
0.47000000000000003,10.11045,0.4700000000000001
0.48,10.1152,0.48000000000000004
0.49,10.12005,0.49000000000000005
0.5,10.125,0.5000000000000001
0.51,10.13005,0.5100000000000001
0.52,10.135200000000001,0.5200000000000001
0.53,10.140450000000001,0.5300000000000001
0.54,10.145800000000001,0.5400000000000001
0.55,10.151250000000001,0.5500000000000002
0.56,10.1568,0.5600000000000003
0.5700000000000001,10.162450000000002,0.5700000000000003
0.58,10.1682,0.5800000000000002
0.59,10.174050000000001,0.5900000000000002
0.6,10.18,0.6000000000000003
0.61,10.18605,0.6100000000000003
0.62,10.192200000000001,0.6200000000000003
0.63,10.198450000000001,0.6300000000000003
0.64,10.2048,0.6400000000000003
0.65,10.211250000000001,0.6500000000000004
0.66,10.2178,0.6600000000000004
0.67,10.224450000000001,0.6700000000000004
0.68,10.231200000000001,0.6800000000000004
0.6900000000000001,10.238050000000001,0.6900000000000004
0.7000000000000001,10.245000000000001,0.7000000000000004
0.71,10.25205,0.7100000000000003
0.72,10.2592,0.7200000000000003
0.73,10.26645,0.7300000000000003
0.74,10.273800000000001,0.7400000000000004
0.75,10.28125,0.7500000000000004
0.76,10.2888,0.7600000000000005
0.77,10.29645,0.7700000000000005
0.78,10.304200000000002,0.7800000000000005
0.79,10.312050000000001,0.7900000000000005
0.8,10.32,0.8000000000000005
0.81,10.328050000000001,0.8100000000000005
0.8200000000000001,10.336200000000002,0.8200000000000006
0.8300000000000001,10.34445,0.8300000000000006
0.84,10.3528,0.8400000000000005
0.85,10.36125,0.8500000000000005
0.86,10.369800000000001,0.8600000000000007
0.87,10.37845,0.8700000000000007
0.88,10.3872,0.8800000000000007
0.89,10.39605,0.8900000000000006
0.9,10.405000000000001,0.9000000000000007
0.91,10.414050000000001,0.9100000000000007
0.92,10.423200000000001,0.9200000000000007
0.93,10.432450000000001,0.9300000000000007
0.9400000000000001,10.4418,0.9400000000000007
0.9500000000000001,10.451250000000002,0.9500000000000008
0.96,10.4608,0.9600000000000009
0.97,10.470450000000001,0.9700000000000009
0.98,10.4802,0.9800000000000009
0.99,10.49005,0.9900000000000009
1.0,10.5,1.0000000000000009
1.01,10.510050000000001,1.010000000000001
1.02,10.5202,1.020000000000001
1.03,10.53045,1.030000000000001
1.04,10.5408,1.040000000000001
1.05,10.551250000000001,1.0500000000000012
1.06,10.561800000000002,1.0600000000000012
1.07,10.572450000000002,1.0700000000000012
1.08,10.583200000000001,1.0800000000000012
1.09,10.59405,1.0899999999999999
1.1,10.605,1.0999999999999999
1.11,10.61605,1.1099999999999999
1.12,10.6272,1.1199999999999999
1.1300000000000001,10.63845,1.13
1.1400000000000001,10.649799999999999,1.14
1.1500000000000001,10.661249999999999,1.15
1.16,10.672799999999999,1.1599999999999997
1.17,10.68445,1.1699999999999997
1.18,10.6962,1.1799999999999997
1.19,10.70805,1.1899999999999997
1.2,10.719999999999999,1.1999999999999997
1.21,10.73205,1.2099999999999997
1.22,10.7442,1.2199999999999998
1.23,10.75645,1.2299999999999998
1.24,10.768799999999999,1.2399999999999998
1.25,10.78125,1.2499999999999998
1.26,10.7938,1.2599999999999998
1.27,10.80645,1.2699999999999998
1.28,10.8192,1.2799999999999998
1.29,10.832049999999999,1.2899999999999998
1.3,10.844999999999999,1.2999999999999998
1.31,10.85805,1.3099999999999998
1.32,10.8712,1.3199999999999998
1.33,10.88445,1.3299999999999998
1.34,10.8978,1.3399999999999999
1.35,10.911249999999999,1.3499999999999999
1.36,10.9248,1.3599999999999999
1.37,10.93845,1.3699999999999999
1.3800000000000001,10.9522,1.38
1.3900000000000001,10.96605,1.39
1.4000000000000001,10.98,1.4
1.41,10.99405,1.4099999999999997
1.42,11.0082,1.4199999999999997
1.43,11.02245,1.4299999999999997
1.44,11.0368,1.4399999999999997
1.45,11.05125,1.4499999999999997
1.46,11.0658,1.4599999999999997
1.47,11.080449999999999,1.4699999999999998
1.48,11.0952,1.4799999999999998
1.49,11.11005,1.4899999999999998
1.5,11.125,1.4999999999999998
1.51,11.14005,1.5099999999999998
1.52,11.1552,1.5199999999999998
1.53,11.170449999999999,1.5299999999999998
1.54,11.1858,1.5399999999999998
1.55,11.20125,1.5499999999999998
1.56,11.2168,1.5599999999999998
1.57,11.23245,1.5699999999999998
1.58,11.2482,1.5799999999999998
1.59,11.26405,1.5899999999999999
1.6,11.28,1.5999999999999999
1.61,11.29605,1.6099999999999999
1.62,11.3122,1.6199999999999999
1.6300000000000001,11.32845,1.63
1.6400000000000001,11.3448,1.64
1.6500000000000001,11.36125,1.65
1.6600000000000001,11.3778,1.66
1.67,11.394449999999999,1.6699999999999997
1.68,11.4112,1.6799999999999997
1.69,11.428049999999999,1.6899999999999997
1.7,11.445,1.6999999999999997
1.71,11.46205,1.7099999999999995
1.72,11.4792,1.7199999999999998
1.73,11.49645,1.7299999999999998
1.74,11.5138,1.7399999999999998
1.75,11.53125,1.7499999999999998
1.76,11.5488,1.7599999999999998
1.77,11.56645,1.7699999999999998
1.78,11.5842,1.7799999999999998
1.79,11.60205,1.7899999999999998
1.8,11.62,1.7999999999999998
1.81,11.63805,1.8099999999999998
1.82,11.6562,1.8199999999999998
1.83,11.67445,1.8299999999999998
1.84,11.6928,1.8399999999999999
1.85,11.71125,1.8499999999999999
1.86,11.729800000000001,1.8599999999999999
1.87,11.74845,1.8699999999999999
1.8800000000000001,11.7672,1.88
1.8900000000000001,11.78605,1.89
1.9000000000000001,11.805,1.9
1.9100000000000001,11.82405,1.91
1.92,11.8432,1.9199999999999997
1.93,11.86245,1.9299999999999997
1.94,11.8818,1.9399999999999997
1.95,11.90125,1.9499999999999997
1.96,11.9208,1.9599999999999997
1.97,11.94045,1.9699999999999998
1.98,11.9602,1.9799999999999998
1.99,11.98005,1.9899999999999998
2.0,12.0,2.0
2.0100000000000002,12.020050000000001,2.0100000000000002
2.02,12.0402,2.02
2.0300000000000002,12.060450000000001,2.0300000000000002
2.04,12.0808,2.04
2.05,12.10125,2.05
2.06,12.1218,2.06
2.07,12.14245,2.07
2.08,12.1632,2.08
2.09,12.18405,2.09
2.1,12.205,2.0999999999999996
2.11,12.22605,2.11
2.12,12.2472,2.12
2.13,12.26845,2.13
2.14,12.2898,2.1399999999999997
2.15,12.31125,2.15
2.16,12.3328,2.16
2.17,12.35445,2.17
2.18,12.3762,2.18
2.19,12.39805,2.1899999999999995
2.2,12.42,2.2
2.21,12.44205,2.21
2.22,12.464200000000002,2.2199999999999998
2.23,12.48645,2.2299999999999995
2.24,12.5088,2.24
2.25,12.53125,2.25
2.2600000000000002,12.5538,2.26
2.27,12.576450000000001,2.2699999999999996
2.2800000000000002,12.599200000000002,2.2800000000000002
2.29,12.622050000000002,2.29
2.3000000000000003,12.645000000000001,2.3
2.31,12.668050000000001,2.31
2.32,12.6912,2.3199999999999994
2.33,12.714450000000001,2.33
2.34,12.7378,2.34
2.35,12.76125,2.3499999999999996
2.36,12.7848,2.3599999999999994
2.37,12.80845,2.3699999999999997
2.38,12.8322,2.38
2.39,12.856050000000002,2.39
2.4,12.88,2.4
2.41,12.904050000000002,2.41
2.42,12.9282,2.42
2.43,12.95245,2.43
2.44,12.9768,2.44
2.45,13.00125,2.45
2.46,13.0258,2.46
2.47,13.050450000000001,2.47
2.48,13.0752,2.48
2.49,13.100050000000001,2.49
2.5,13.125,2.5
2.5100000000000002,13.15005,2.5100000000000002
2.52,13.1752,2.52
2.5300000000000002,13.200450000000002,2.5300000000000002
2.54,13.225800000000001,2.54
2.5500000000000003,13.251250000000002,2.5500000000000003
2.56,13.276800000000001,2.5600000000000005
2.57,13.30245,2.57
2.58,13.3282,2.58
2.59,13.35405,2.59
2.6,13.38,2.6
2.61,13.40605,2.6100000000000003
2.62,13.432200000000002,2.62
2.63,13.458450000000001,2.63
2.64,13.484800000000002,2.64
2.65,13.51125,2.65
2.66,13.5378,2.66
2.67,13.56445,2.67
2.68,13.5912,2.6800000000000006
2.69,13.61805,2.69
2.7,13.645000000000001,2.7
2.71,13.67205,2.71
2.72,13.699200000000001,2.72
2.73,13.72645,2.73
2.74,13.753800000000002,2.74
2.75,13.781250000000002,2.75
2.7600000000000002,13.808800000000002,2.7600000000000002
2.77,13.836450000000001,2.77
2.7800000000000002,13.864200000000002,2.7800000000000002
2.79,13.892050000000001,2.79
2.8000000000000003,13.920000000000002,2.8000000000000003
2.81,13.948050000000002,2.81
2.82,13.976200000000002,2.82
2.83,14.004450000000002,2.83
2.84,14.032800000000002,2.84
2.85,14.061250000000001,2.85
2.86,14.089800000000002,2.8600000000000003
2.87,14.118450000000003,2.87
2.88,14.147200000000002,2.88
2.89,14.176050000000002,2.89
2.9,14.205000000000002,2.9
2.91,14.234050000000002,2.91
2.92,14.263200000000001,2.92
2.93,14.292450000000002,2.9300000000000006
2.94,14.321800000000001,2.94
2.95,14.351250000000002,2.95
2.96,14.3808,2.96
2.97,14.410450000000003,2.97
2.98,14.440200000000003,2.9800000000000004
2.99,14.470050000000002,2.99
3.0,14.500000000000002,3.0
3.0100000000000002,14.530050000000003,3.0100000000000002
3.02,14.560200000000002,3.02
3.0300000000000002,14.590450000000002,3.0300000000000002
3.04,14.620800000000003,3.04
3.0500000000000003,14.651250000000003,3.0500000000000007
3.06,14.681800000000003,3.06
3.0700000000000003,14.712450000000004,3.0700000000000003
3.08,14.743200000000002,3.08
3.09,14.774050000000003,3.09
3.1,14.805000000000003,3.1
3.11,14.836050000000002,3.11
3.12,14.867200000000004,3.1200000000000006
3.13,14.898450000000004,3.1300000000000003
3.14,14.929800000000002,3.1399999999999997
3.15,14.96125,3.1499999999999995
3.16,14.992800000000003,3.16
3.17,15.024450000000003,3.1700000000000004
3.18,15.056200000000002,3.18
3.19,15.08805,3.1899999999999995
3.2,15.120000000000005,3.2000000000000006
3.21,15.152050000000003,3.21
3.22,15.1842,3.2199999999999998
3.23,15.216450000000002,3.23
3.24,15.248800000000005,3.2400000000000007
3.25,15.281250000000004,3.2500000000000004
3.2600000000000002,15.313800000000004,3.26
3.27,15.34645,3.2699999999999996
3.2800000000000002,15.379200000000004,3.2800000000000002
3.29,15.412050000000004,3.2900000000000005
3.3000000000000003,15.445000000000004,3.3000000000000003
3.31,15.478050000000001,3.31
3.3200000000000003,15.511200000000004,3.3200000000000007
3.33,15.544450000000003,3.3300000000000005
3.34,15.577800000000003,3.3400000000000003
3.35,15.611250000000002,3.35
3.36,15.6448,3.36
3.37,15.678450000000003,3.3700000000000006
3.38,15.712200000000005,3.380000000000001
3.39,15.746050000000004,3.39
3.4,15.780000000000003,3.4
3.41,15.814050000000005,3.4100000000000006
3.42,15.848200000000004,3.4200000000000004
3.43,15.882450000000002,3.43
3.44,15.916800000000002,3.44
3.45,15.951250000000005,3.4500000000000006
3.46,15.985800000000005,3.4600000000000004
3.47,16.020450000000004,3.47
3.48,16.055200000000003,3.48
3.49,16.090050000000005,3.4900000000000007
3.5,16.125000000000004,3.5000000000000004
3.5100000000000002,16.160050000000005,3.5100000000000007
3.52,16.195200000000003,3.52
3.5300000000000002,16.23045000000001,3.5300000000000007
3.54,16.265800000000006,3.5400000000000005
3.5500000000000003,16.301250000000003,3.5500000000000003
3.56,16.336800000000004,3.56
3.5700000000000003,16.372450000000008,3.5700000000000007
3.58,16.408200000000008,3.5800000000000005
3.59,16.444050000000004,3.5900000000000003
3.6,16.480000000000004,3.6
3.61,16.516050000000003,3.6100000000000003
3.62,16.552200000000006,3.6200000000000006
3.63,16.588450000000005,3.630000000000001
3.64,16.624800000000004,3.64
3.65,16.661250000000003,3.65
3.66,16.697800000000008,3.6600000000000006
3.67,16.734450000000006,3.6700000000000004
3.68,16.771200000000004,3.68
3.69,16.80805,3.69
3.7,16.845000000000006,3.7000000000000006
3.71,16.882050000000007,3.7100000000000004
3.72,16.919200000000004,3.72
3.73,16.956450000000004,3.73
3.74,16.993800000000007,3.7400000000000007
3.75,17.031250000000007,3.750000000000001
3.7600000000000002,17.068800000000007,3.7600000000000002
3.77,17.106450000000006,3.77
3.7800000000000002,17.14420000000001,3.7800000000000007
3.79,17.182050000000007,3.7900000000000005
3.8000000000000003,17.220000000000006,3.8000000000000003
3.81,17.258050000000004,3.81
3.8200000000000003,17.296200000000006,3.8200000000000007
3.83,17.334450000000007,3.8300000000000005
3.84,17.372800000000005,3.8400000000000003
3.85,17.411250000000003,3.85
3.86,17.449800000000003,3.8600000000000003
3.87,17.488450000000007,3.8700000000000006
3.88,17.527200000000008,3.880000000000001
3.89,17.566050000000004,3.89
3.9,17.605000000000004,3.9
3.91,17.644050000000007,3.9100000000000006
3.92,17.683200000000006,3.9200000000000004
3.93,17.722450000000006,3.93
3.94,17.761800000000004,3.94
3.95,17.801250000000007,3.9500000000000006
3.96,17.840800000000005,3.9600000000000004
3.97,17.880450000000003,3.97
3.98,17.92020000000001,3.9800000000000004
3.99,17.960050000000006,3.9900000000000007
4.0,18.000000000000007,4.000000000000001
4.01,18.040050000000008,4.01
4.0200000000000005,18.08020000000001,4.020000000000001
4.03,18.12045000000001,4.030000000000001
4.04,18.16080000000001,4.040000000000001
4.05,18.201250000000005,4.050000000000001
4.0600000000000005,18.24180000000001,4.0600000000000005
4.07,18.282450000000008,4.07
4.08,18.323200000000007,4.08
4.09,18.364050000000006,4.09
4.1,18.405000000000005,4.1
4.11,18.446050000000007,4.110000000000001
4.12,18.48720000000001,4.120000000000001
4.13,18.528450000000007,4.130000000000001
4.14,18.569800000000008,4.140000000000001
4.15,18.61125000000001,4.15
4.16,18.652800000000006,4.16
4.17,18.694450000000007,4.17
4.18,18.736200000000007,4.18
4.19,18.778050000000007,4.190000000000001
4.2,18.820000000000007,4.200000000000001
4.21,18.862050000000007,4.210000000000001
4.22,18.904200000000007,4.220000000000001
4.23,18.94645000000001,4.23
4.24,18.988800000000012,4.240000000000002
4.25,19.03125000000001,4.250000000000002
4.26,19.073800000000006,4.260000000000001
4.2700000000000005,19.116450000000015,4.270000000000001
4.28,19.159200000000013,4.280000000000001
4.29,19.202050000000007,4.290000000000001
4.3,19.245000000000008,4.300000000000001
4.3100000000000005,19.288050000000013,4.310000000000001
4.32,19.33120000000001,4.320000000000001
4.33,19.37445000000001,4.330000000000001
4.34,19.417800000000007,4.340000000000001
4.3500000000000005,19.461250000000014,4.350000000000001
4.36,19.50480000000001,4.360000000000001
4.37,19.54845000000001,4.370000000000001
4.38,19.592200000000012,4.380000000000001
4.39,19.636050000000008,4.390000000000001
4.4,19.680000000000014,4.400000000000001
4.41,19.724050000000013,4.410000000000001
4.42,19.768200000000007,4.420000000000001
4.43,19.812450000000005,4.430000000000001
4.44,19.85680000000001,4.440000000000001
4.45,19.90125000000001,4.450000000000001
4.46,19.94580000000001,4.460000000000001
4.47,19.99045000000001,4.470000000000001
4.48,20.03520000000001,4.480000000000001
4.49,20.080050000000014,4.490000000000002
4.5,20.12500000000001,4.500000000000002
4.51,20.17005000000001,4.510000000000001
4.5200000000000005,20.215200000000014,4.520000000000001
4.53,20.260450000000013,4.530000000000001
4.54,20.305800000000012,4.540000000000001
4.55,20.351250000000007,4.550000000000001
4.5600000000000005,20.396800000000013,4.560000000000001
4.57,20.44245000000001,4.570000000000001
4.58,20.488200000000013,4.580000000000001
4.59,20.534050000000008,4.590000000000001
4.6000000000000005,20.580000000000013,4.600000000000001
4.61,20.626050000000014,4.610000000000001
4.62,20.67220000000001,4.620000000000001
4.63,20.71845000000001,4.630000000000002
4.64,20.764800000000008,4.640000000000001
4.65,20.811250000000012,4.650000000000002
4.66,20.85780000000001,4.660000000000002
4.67,20.90445000000001,4.670000000000002
4.68,20.951200000000007,4.6800000000000015
4.69,20.998050000000013,4.690000000000001
4.7,21.04500000000001,4.700000000000001
4.71,21.092050000000008,4.710000000000001
4.72,21.13920000000001,4.7200000000000015
4.73,21.18645000000001,4.730000000000002
4.74,21.233800000000013,4.740000000000002
4.75,21.281250000000014,4.750000000000002
4.76,21.328800000000008,4.760000000000002
4.7700000000000005,21.376450000000013,4.770000000000002
4.78,21.424200000000013,4.780000000000001
4.79,21.47205000000001,4.790000000000001
4.8,21.52000000000001,4.800000000000001
4.8100000000000005,21.568050000000014,4.810000000000002
4.82,21.616200000000013,4.820000000000002
4.83,21.66445000000001,4.830000000000002
4.84,21.712800000000016,4.840000000000002
4.8500000000000005,21.761250000000015,4.850000000000001
4.86,21.809800000000017,4.860000000000002
4.87,21.858450000000012,4.870000000000002
4.88,21.907200000000014,4.880000000000002
4.89,21.956050000000012,4.890000000000001
4.9,22.005000000000017,4.900000000000002
4.91,22.054050000000014,4.910000000000002
4.92,22.103200000000015,4.920000000000002
4.93,22.152450000000012,4.9300000000000015
4.94,22.201800000000013,4.940000000000001
4.95,22.251250000000013,4.950000000000001
4.96,22.300800000000013,4.960000000000001
4.97,22.350450000000016,4.9700000000000015
4.98,22.40020000000002,4.980000000000002
4.99,22.45005000000002,4.990000000000002
5.0,22.500000000000014,5.000000000000002
5.01,22.550050000000013,5.010000000000002
5.0200000000000005,22.60020000000002,5.020000000000002
5.03,22.650450000000017,5.030000000000001
5.04,22.700800000000015,5.040000000000001
5.05,22.751250000000013,5.050000000000001
5.0600000000000005,22.801800000000014,5.060000000000002
5.07,22.852450000000015,5.070000000000002
5.08,22.903200000000012,5.080000000000002
5.09,22.954050000000016,5.090000000000002
5.1000000000000005,23.005000000000017,5.100000000000001
5.11,23.056050000000017,5.110000000000002
5.12,23.10720000000002,5.120000000000002
5.13,23.158450000000016,5.130000000000002
5.14,23.209800000000016,5.1400000000000015
5.15,23.261250000000018,5.150000000000002
5.16,23.312800000000017,5.160000000000002
5.17,23.364450000000012,5.170000000000002
5.18,23.41620000000001,5.1800000000000015
5.19,23.46805000000002,5.190000000000002
5.2,23.520000000000017,5.200000000000002
5.21,23.57205000000002,5.210000000000002
5.22,23.624200000000016,5.2200000000000015
5.23,23.676450000000017,5.230000000000002
5.24,23.72880000000002,5.240000000000002
5.25,23.781250000000018,5.250000000000002
5.26,23.833800000000014,5.260000000000002
5.2700000000000005,23.886450000000018,5.270000000000002
5.28,23.939200000000017,5.280000000000002
5.29,23.992050000000013,5.290000000000002
5.3,24.045000000000016,5.300000000000002
5.3100000000000005,24.09805000000002,5.310000000000002
5.32,24.151200000000017,5.320000000000002
5.33,24.204450000000016,5.330000000000002
5.34,24.257800000000017,5.340000000000002
5.3500000000000005,24.311250000000022,5.350000000000002
5.36,24.364800000000024,5.360000000000002
5.37,24.41845000000002,5.370000000000002
5.38,24.47220000000002,5.380000000000002
5.39,24.52605000000002,5.3900000000000015
5.4,24.58000000000002,5.400000000000002
5.41,24.63405000000002,5.410000000000002
5.42,24.688200000000016,5.420000000000002
5.43,24.74245000000002,5.4300000000000015
5.44,24.79680000000002,5.440000000000002
5.45,24.851250000000018,5.450000000000002
5.46,24.90580000000002,5.460000000000002
5.47,24.96045000000002,5.4700000000000015
5.48,25.01520000000002,5.480000000000002
